Potential applied (V);Time (s);WE(1).Current (A);WE(1).Potential (V);Index;Current range
0.01007080078125;2105.33941768453;-4.07470703125E-06;0.0104461669921875;1;1 µA
0.0201416015625;2105.44012568427;-3.69720458984375E-06;0.0205474853515625;2;1 µA
0.03021240234375;2105.54083368402;-3.40301513671875E-06;0.0306304931640625;3;1 µA
0.040283203125;2105.64154168377;-3.1634521484375E-06;0.0407257080078125;4;1 µA
0.05035400390625;2105.74224968351;-2.9327392578125E-06;0.0508148193359375;5;1 µA
0.0604248046875;2105.84295768326;-2.69622802734375E-06;0.060455322265625;6;1 µA
0.07049560546875;2105.943665683;-2.452392578125E-06;0.070526123046875;7;1 µA
0.08056640625;2106.04437368275;-2.1722412109375E-06;0.0806884765625;8;1 µA
0.09063720703125;2106.14508168249;-1.83563232421875E-06;0.090850830078125;9;1 µA
0.1007080078125;2106.24578968224;-1.40838623046875E-06;0.101043701171875;10;1 µA
0.11077880859375;2106.34649768199;-8.428955078125E-07;0.11102294921875;11;1 µA
0.120849609375;2106.44720568173;-1.07208251953125E-07;0.121337890625;12;1 µA
0.13092041015625;2106.54791368148;9.0301513671875E-07;0.13153076171875;13;1 µA
0.1409912109375;2106.64862168122;2.2528076171875E-06;0.141845703125;14;1 µA
0.15106201171875;2106.74932968097;4.07318115234375E-06;0.152252197265625;15;1 µA
0.1611328125;2106.85003768072;6.50604248046875E-06;0.162750244140625;16;1 µA
0.17120361328125;2106.95074568046;9.9334716796875E-06;0.171844482421875;17;10 µA
0.1812744140625;2107.05145368021;1.46484375E-05;0.18206787109375;18;10 µA
0.19134521484375;2107.15216167995;2.07763671875E-05;0.192169189453125;19;10 µA
0.201416015625;2107.2528696797;2.8204345703125E-05;0.202362060546875;20;10 µA
0.21148681640625;2107.35357767944;3.69140625E-05;0.212615966796875;21;10 µA
0.2215576171875;2107.45428567919;4.68414306640625E-05;0.222900390625;22;10 µA
0.23162841796875;2107.55499367894;5.6842041015625E-05;0.233154296875;23;10 µA
0.24169921875;2107.65570167868;6.5576171875E-05;0.243255615234375;24;10 µA
0.25177001953125;2107.75640967843;7.2113037109375E-05;0.25244140625;25;100 µA
0.2618408203125;2107.85711767817;7.3638916015625E-05;0.262481689453125;26;100 µA
0.27191162109375;2107.95782567792;7.01904296875E-05;0.2725830078125;27;100 µA
0.281982421875;2108.05853367766;6.40869140625E-05;0.28265380859375;28;100 µA
0.29205322265625;2108.15924167741;5.718994140625E-05;0.292724609375;29;100 µA
0.3021240234375;2108.25994967716;5.0872802734375E-05;0.302734375;30;100 µA
0.31219482421875;2108.3606576769;4.66552734375E-05;0.312896728515625;31;100 µA
0.322265625;2108.46136567665;4.3212890625E-05;0.32293701171875;32;100 µA
0.33233642578125;2108.56207367639;4.0545654296875E-05;0.333038330078125;33;100 µA
0.3424072265625;2108.66278167614;3.9215087890625E-05;0.3431396484375;34;100 µA
0.35247802734375;2108.76348967588;3.8348388671875E-05;0.3531494140625;35;100 µA
0.362548828125;2108.86419767563;3.79608154296875E-05;0.364013671875;36;10 µA
0.37261962890625;2108.96490567538;3.857421875E-05;0.373931884765625;37;10 µA
0.3826904296875;2109.06561367512;3.968505859375E-05;0.384033203125;38;10 µA
0.39276123046875;2109.16632167487;4.10491943359375E-05;0.394134521484375;39;10 µA
0.40283203125;2109.26702967461;4.3536376953125E-05;0.40423583984375;40;10 µA
0.41290283203125;2109.36773767436;4.63409423828125E-05;0.414337158203125;41;10 µA
0.4229736328125;2109.4684456741;4.945068359375E-05;0.424591064453125;42;10 µA
0.43304443359375;2109.56915367385;5.372314453125E-05;0.434661865234375;43;10 µA
0.443115234375;2109.6698616736;5.860595703125E-05;0.44488525390625;44;10 µA
0.45318603515625;2109.77056967334;6.37176513671875E-05;0.4549560546875;45;10 µA
0.4632568359375;2109.87127767309;7.01904296875E-05;0.46405029296875;46;100 µA
0.47332763671875;2109.97198567283;7.70263671875E-05;0.47412109375;47;100 µA
0.4833984375;2110.07269367258;8.416748046875E-05;0.484222412109375;48;100 µA
0.49346923828125;2110.17340167232;9.2803955078125E-05;0.494384765625;49;100 µA
0.5035400390625;2110.27410967207;0.000101165771484375;0.50445556640625;50;100 µA
0.51361083984375;2110.37481767182;0.0001090087890625;0.51446533203125;51;100 µA
0.523681640625;2110.47552567156;0.000118011474609375;0.524505615234375;52;100 µA
0.53375244140625;2110.57623367131;0.000126861572265625;0.53466796875;53;100 µA
0.5438232421875;2110.67694167105;0.000134796142578125;0.544708251953125;54;100 µA
0.55389404296875;2110.7776496708;0.000143829345703125;0.55487060546875;55;100 µA
0.56396484375;2110.87835767054;0.000152923583984375;0.56494140625;56;100 µA
0.57403564453125;2110.97906567029;0.000160919189453125;0.575042724609375;57;100 µA
0.5841064453125;2111.07977367004;0.000170501708984375;0.58514404296875;58;100 µA
0.59417724609375;2111.18048166978;0.00017950439453125;0.595123291015625;59;100 µA
0.604248046875;2111.28118966953;0.000188079833984375;0.6053466796875;60;100 µA
0.61431884765625;2111.38189766927;0.0001982421875;0.6153564453125;61;100 µA
0.6243896484375;2111.48260566902;0.00020904541015625;0.62554931640625;62;100 µA
0.63446044921875;2111.58331366876;0.000220611572265625;0.63555908203125;63;100 µA
0.64453125;2111.68402166851;0.00023681640625;0.645751953125;64;100 µA
0.65460205078125;2111.78472966826;0.000255706787109375;0.655792236328125;65;100 µA
0.6646728515625;2111.885437668;0.00027880859375;0.6658935546875;66;100 µA
0.67474365234375;2111.98614566775;0.00030889892578125;0.67608642578125;67;100 µA
0.684814453125;2112.08685366749;0.000341888427734375;0.6861572265625;68;100 µA
0.69488525390625;2112.18756166724;0.000379119873046875;0.6964111328125;69;100 µA
0.7049560546875;2112.28826966698;0.000421966552734375;0.706512451171875;70;100 µA
0.71502685546875;2112.38897766673;0.00046490478515625;0.71673583984375;71;100 µA
0.72509765625;2112.48968566648;0.000511566162109375;0.726837158203125;72;100 µA
0.73516845703125;2112.59039366622;0.00056231689453125;0.736968994140625;73;100 µA
0.7452392578125;2112.69110166597;0.0006099853515625;0.747039794921875;74;100 µA
0.75531005859375;2112.79180966571;0.000662841796875;0.7550048828125;75;1 mA
0.765380859375;2112.89251766546;0.0007183837890625;0.7666015625;76;1 mA
0.77545166015625;2112.99322566521;0.00076904296875;0.7757568359375;77;1 mA
0.7855224609375;2113.09393366495;0.0008258056640625;0.7855224609375;78;1 mA
0.79559326171875;2113.1946416647;0.000885009765625;0.7952880859375;79;1 mA
0.8056640625;2113.29534966444;0.00093719482421875;0.8056640625;80;1 mA
0.81573486328125;2113.39605766419;0.000997314453125;0.81634521484375;81;1 mA
0.8258056640625;2113.49676566393;0.00105926513671875;0.8258056640625;82;1 mA
0.83587646484375;2113.59747366368;0.00111328125;0.8355712890625;83;1 mA
0.845947265625;2113.69818166343;0.0011761474609375;0.84625244140625;84;1 mA
0.85601806640625;2113.79888966317;0.0012396240234375;0.8563232421875;85;1 mA
0.8660888671875;2113.89959766292;0.0012957763671875;0.86578369140625;86;1 mA
0.87615966796875;2114.00030566266;0.00136016845703125;0.8758544921875;87;1 mA
0.88623046875;2114.10101366241;0.0014251708984375;0.88653564453125;88;1 mA
0.89630126953125;2114.20172166215;0.001484375;0.89569091796875;89;1 mA
0.9063720703125;2114.3024296619;0.00154937744140625;0.90576171875;90;1 mA
0.91644287109375;2114.40313766165;0.0016156005859375;0.916748046875;91;1 mA
0.926513671875;2114.50384566139;0.00167694091796875;0.92620849609375;92;1 mA
0.93658447265625;2114.60455366114;0.0017425537109375;0.93658447265625;93;1 mA
0.9466552734375;2114.70526166088;0.00180908203125;0.94635009765625;94;1 mA
0.95672607421875;2114.80596966063;0.00187225341796875;0.95611572265625;95;1 mA
0.966796875;2114.90667766037;0.0019354248046875;0.9661865234375;96;1 mA
0.97686767578125;2115.00738566012;0.00200469970703125;0.9759521484375;97;1 mA
0.9869384765625;2115.10809365987;0.0020672607421875;0.98602294921875;98;1 mA
0.99700927734375;2115.20880165961;0.00212982177734375;0.997314453125;99;1 mA
1.007080078125;2115.30950965936;0.00220489501953125;1.00677490234375;100;1 mA
1.01715087890625;2115.4102176591;0.0022674560546875;1.01654052734375;101;1 mA
1.0272216796875;2115.51092565885;0.002325439453125;1.0272216796875;102;1 mA
1.03729248046875;2115.61163365859;0.00240203857421875;1.03668212890625;103;1 mA
1.04736328125;2115.71234165834;0.0024664306640625;1.04705810546875;104;1 mA
1.05743408203125;2115.81304965809;0.00252105712890625;1.05712890625;105;1 mA
1.0675048828125;2115.91375765783;0.0026025390625;1.06719970703125;106;1 mA
1.07757568359375;2116.01446565758;0.00267120361328125;1.07757568359375;107;1 mA
1.087646484375;2116.11517365732;0.00272613525390625;1.08795166015625;108;1 mA
1.09771728515625;2116.21588165707;0.0028070068359375;1.097412109375;109;1 mA
1.1077880859375;2116.31658965681;0.0028741455078125;1.1083984375;110;1 mA
1.11785888671875;2116.41729765656;0.00292877197265625;1.1175537109375;111;1 mA
1.1279296875;2116.51800565631;0.00301055908203125;1.12823486328125;112;1 mA
1.13800048828125;2116.61871365605;0.00308013916015625;1.1376953125;113;1 mA
1.1480712890625;2116.7194216558;0.0031353759765625;1.14837646484375;114;1 mA
1.15814208984375;2116.82012965554;0.0032135009765625;1.1578369140625;115;1 mA
1.168212890625;2116.92083765529;0.00328155517578125;1.16851806640625;116;1 mA
1.17828369140625;2117.02154565503;0.0033416748046875;1.1785888671875;117;1 mA
1.1883544921875;2117.12225365478;0.00341583251953125;1.18896484375;118;1 mA
1.19842529296875;2117.22296165453;0.00347991943359375;1.19842529296875;119;1 mA
1.20849609375;2117.32366965427;0.003563232421875;1.2091064453125;120;1 mA
1.21856689453125;2117.42437765402;0.00363739013671875;1.21856689453125;121;1 mA
1.2286376953125;2117.52508565376;0.00369842529296875;1.2286376953125;122;1 mA
1.23870849609375;2117.62579365351;0.00376556396484375;1.239013671875;123;1 mA
1.248779296875;2117.72650165325;0.00384429931640625;1.248779296875;124;1 mA
1.25885009765625;2117.827209653;0.00390350341796875;1.2591552734375;125;1 mA
1.2689208984375;2117.92791765275;0.00398193359375;1.26953125;126;1 mA
1.27899169921875;2118.02862565249;0.00405426025390625;1.2786865234375;127;1 mA
1.2890625;2118.12933365224;0.00411346435546875;1.28875732421875;128;1 mA
1.29913330078125;2118.23004165198;0.00419158935546875;1.2994384765625;129;1 mA
1.3092041015625;2118.33074965173;0.00426513671875;1.3092041015625;130;1 mA
1.31927490234375;2118.43145765147;0.0043267822265625;1.319580078125;131;1 mA
1.329345703125;2118.53216565122;0.004405517578125;1.3299560546875;132;1 mA
1.33941650390625;2118.63287365097;0.0044677734375;1.34002685546875;133;1 mA
1.3494873046875;2118.73358165071;0.00451995849609375;1.34918212890625;134;1 mA
1.35955810546875;2118.83428965046;0.00459930419921875;1.35955810546875;135;1 mA
1.36962890625;2118.9349976502;0.0046649169921875;1.36993408203125;136;1 mA
1.37969970703125;2119.03570564995;0.004713134765625;1.3800048828125;137;1 mA
1.3897705078125;2119.1364136497;0.00479156494140625;1.39068603515625;138;1 mA
1.39984130859375;2119.23712164944;0.0048577880859375;1.40045166015625;139;1 mA
1.409912109375;2119.33782964919;0.0048956298828125;1.409912109375;140;1 mA
1.41998291015625;2119.43853764893;0.00499053955078125;1.4202880859375;141;1 mA
1.4300537109375;2119.53924564868;0.0050579833984375;1.43096923828125;142;1 mA
1.44012451171875;2119.63995364842;0.0050958251953125;1.4404296875;143;1 mA
1.4501953125;2119.74066164817;0.00518218994140625;1.4508056640625;144;1 mA
1.46026611328125;2119.84136964792;0.00525299072265625;1.46087646484375;145;1 mA
1.4703369140625;2119.94207764766;0.00528594970703125;1.4715576171875;146;1 mA
1.48040771484375;2120.04278564741;0.00537109375;1.47979736328125;147;1 mA
1.490478515625;2120.14349364715;0.00553131103515625;1.490478515625;148;1 mA
1.50054931640625;2120.2442016469;0.00554931640625;1.50146484375;149;1 mA
1.5106201171875;2120.34490964664;0.00564117431640625;1.51092529296875;150;1 mA
1.52069091796875;2120.44561764639;0.00570892333984375;1.52099609375;151;1 mA
1.53076171875;2120.54632564614;0.0057318115234375;1.53167724609375;152;1 mA
1.54083251953125;2120.64703364588;0.005909423828125;1.54083251953125;153;1 mA
1.5509033203125;2120.74774164563;0.0059698486328125;1.55120849609375;154;1 mA
1.56097412109375;2120.84844964537;0.00598846435546875;1.5618896484375;155;1 mA
1.571044921875;2120.94915764512;0.00608795166015625;1.57196044921875;156;1 mA
1.58111572265625;2121.04986564486;0.006182861328125;1.58111572265625;157;10 mA
1.5911865234375;2121.15057364461;0.00625;1.59149169921875;158;10 mA
1.60125732421875;2121.25128164436;0.0063323974609375;1.60186767578125;159;10 mA
