Potential applied (V);Time (s);WE(1).Current (A);WE(1).Potential (V);Index;Current range
0.01007080078125;2215.86585240548;-3.8885498046875E-06;0.010504150390625;1;1 µA
0.0201416015625;2215.96656040522;-3.51165771484375E-06;0.0205963134765625;2;1 µA
0.03021240234375;2216.06726840497;-3.27178955078125E-06;0.0306732177734375;3;1 µA
0.040283203125;2216.16797640471;-3.01177978515625E-06;0.0407440185546875;4;1 µA
0.05035400390625;2216.26868440446;-2.7978515625E-06;0.0508697509765625;5;1 µA
0.0604248046875;2216.36939240421;-2.5885009765625E-06;0.060516357421875;6;1 µA
0.07049560546875;2216.47010040395;-2.33612060546875E-06;0.07061767578125;7;1 µA
0.08056640625;2216.5708084037;-2.05322265625E-06;0.080657958984375;8;1 µA
0.09063720703125;2216.67151640344;-1.6961669921875E-06;0.0908203125;9;1 µA
0.1007080078125;2216.77222440319;-1.31011962890625E-06;0.10101318359375;10;1 µA
0.11077880859375;2216.87293240293;-7.965087890625E-07;0.111114501953125;11;1 µA
0.120849609375;2216.97364040268;-1.1077880859375E-07;0.121337890625;12;1 µA
0.13092041015625;2217.07434840243;7.763671875E-07;0.13153076171875;13;1 µA
0.1409912109375;2217.17505640217;1.98394775390625E-06;0.141876220703125;14;1 µA
0.15106201171875;2217.27576440192;3.597412109375E-06;0.152099609375;15;1 µA
0.1611328125;2217.37647240166;5.7415771484375E-06;0.162689208984375;16;1 µA
0.17120361328125;2217.47718040141;8.86749267578125E-06;0.173248291015625;17;1 µA
0.1812744140625;2217.57788840115;1.3287353515625E-05;0.182037353515625;18;10 µA
0.19134521484375;2217.6785964009;1.91864013671875E-05;0.1922607421875;19;10 µA
0.201416015625;2217.77930440065;2.6666259765625E-05;0.202423095703125;20;10 µA
0.21148681640625;2217.88001240039;3.585205078125E-05;0.212615966796875;21;10 µA
0.2215576171875;2217.98072040014;4.6112060546875E-05;0.22296142578125;22;10 µA
0.23162841796875;2218.08142839988;5.65032958984375E-05;0.233123779296875;23;10 µA
0.24169921875;2218.18213639963;6.47186279296875E-05;0.243408203125;24;10 µA
0.25177001953125;2218.28284439937;6.878662109375E-05;0.25250244140625;25;100 µA
0.2618408203125;2218.38355239912;6.70166015625E-05;0.262481689453125;26;100 µA
0.27191162109375;2218.48426039887;6.060791015625E-05;0.27264404296875;27;100 µA
0.281982421875;2218.58496839861;5.2459716796875E-05;0.282562255859375;28;100 µA
0.29205322265625;2218.68567639836;4.52423095703125E-05;0.292755126953125;29;100 µA
0.3021240234375;2218.7863843981;3.95111083984375E-05;0.302734375;30;100 µA
0.31219482421875;2218.88709239785;3.56353759765625E-05;0.3128662109375;31;100 µA
0.322265625;2218.98780039759;3.294677734375E-05;0.322998046875;32;100 µA
0.33233642578125;2219.08850839734;3.09478759765625E-05;0.3330078125;33;100 µA
0.3424072265625;2219.18921639709;2.9638671875E-05;0.34375;34;10 µA
0.35247802734375;2219.28992439683;2.89093017578125E-05;0.353607177734375;35;10 µA
0.362548828125;2219.39063239658;2.88970947265625E-05;0.36376953125;36;10 µA
0.37261962890625;2219.49134039632;2.92449951171875E-05;0.37384033203125;37;10 µA
0.3826904296875;2219.59204839607;3.01300048828125E-05;0.38397216796875;38;10 µA
0.39276123046875;2219.69275639581;3.14422607421875E-05;0.39398193359375;39;10 µA
0.40283203125;2219.79346439556;3.33251953125E-05;0.40411376953125;40;10 µA
0.41290283203125;2219.89417239531;3.568115234375E-05;0.41424560546875;41;10 µA
0.4229736328125;2219.99488039505;3.85772705078125E-05;0.424346923828125;42;10 µA
0.43304443359375;2220.0955883948;4.208984375E-05;0.434417724609375;43;10 µA
0.443115234375;2220.19629639454;4.635009765625E-05;0.444671630859375;44;10 µA
0.45318603515625;2220.29700439429;5.1226806640625E-05;0.45477294921875;45;10 µA
0.4632568359375;2220.39771239403;5.677490234375E-05;0.46502685546875;46;10 µA
0.47332763671875;2220.49842039378;6.2982177734375E-05;0.47515869140625;47;10 µA
0.4833984375;2220.59912839353;6.9732666015625E-05;0.48419189453125;48;100 µA
0.49346923828125;2220.69983639327;7.6812744140625E-05;0.49432373046875;49;100 µA
0.5035400390625;2220.80054439302;8.3953857421875E-05;0.50445556640625;50;100 µA
0.51361083984375;2220.90125239276;9.075927734375E-05;0.514434814453125;51;100 µA
0.523681640625;2221.00196039251;9.7625732421875E-05;0.524505615234375;52;100 µA
0.53375244140625;2221.10266839225;0.000104583740234375;0.53466796875;53;100 µA
0.5438232421875;2221.203376392;0.00011151123046875;0.544830322265625;54;100 µA
0.55389404296875;2221.30408439175;0.000118408203125;0.554840087890625;55;100 µA
0.56396484375;2221.40479239149;0.00012530517578125;0.564971923828125;56;100 µA
0.57403564453125;2221.50550039124;0.000131805419921875;0.574951171875;57;100 µA
0.5841064453125;2221.60620839098;0.00013885498046875;0.585174560546875;58;100 µA
0.59417724609375;2221.70691639073;0.00014599609375;0.59515380859375;59;100 µA
0.604248046875;2221.80762439048;0.0001529541015625;0.60528564453125;60;100 µA
0.61431884765625;2221.90833239022;0.0001610107421875;0.61541748046875;61;100 µA
0.6243896484375;2222.00904038997;0.000171173095703125;0.625518798828125;62;100 µA
0.63446044921875;2222.10974838971;0.0001845703125;0.635528564453125;63;100 µA
0.64453125;2222.21045638946;0.000203582763671875;0.645721435546875;64;100 µA
0.65460205078125;2222.3111643892;0.000228912353515625;0.655792236328125;65;100 µA
0.6646728515625;2222.41187238895;0.000260406494140625;0.665985107421875;66;100 µA
0.67474365234375;2222.51258038869;0.00029827880859375;0.676177978515625;67;100 µA
0.684814453125;2222.61328838844;0.00034136962890625;0.686279296875;68;100 µA
0.69488525390625;2222.71399638819;0.000389801025390625;0.696441650390625;69;100 µA
0.7049560546875;2222.81470438793;0.000441253662109375;0.706634521484375;70;100 µA
0.71502685546875;2222.91541238768;0.000496917724609375;0.71673583984375;71;100 µA
0.72509765625;2223.01612038742;0.0005552978515625;0.727020263671875;72;100 µA
0.73516845703125;2223.11682838717;0.000615753173828125;0.737091064453125;73;100 µA
0.7452392578125;2223.21753638692;0.00067962646484375;0.746246337890625;74;1 mA
0.75531005859375;2223.31824438666;0.00074432373046875;0.755615234375;75;1 mA
0.765380859375;2223.41895238641;0.0008123779296875;0.765380859375;76;1 mA
0.77545166015625;2223.51966038615;0.00088134765625;0.77606201171875;77;1 mA
0.7855224609375;2223.6203683859;0.00095184326171875;0.7855224609375;78;1 mA
0.79559326171875;2223.72107638564;0.0010260009765625;0.7958984375;79;1 mA
0.8056640625;2223.82178438539;0.00109893798828125;0.80535888671875;80;1 mA
0.81573486328125;2223.92249238514;0.00117645263671875;0.81573486328125;81;1 mA
0.8258056640625;2224.02320038488;0.00125396728515625;0.82672119140625;82;1 mA
0.83587646484375;2224.12390838463;0.0013330078125;0.8355712890625;83;1 mA
0.845947265625;2224.22461638437;0.00141510009765625;0.845947265625;84;1 mA
0.85601806640625;2224.32532438412;0.001495361328125;0.85662841796875;85;1 mA
0.8660888671875;2224.42603238386;0.00157989501953125;0.8660888671875;86;1 mA
0.87615966796875;2224.52674038361;0.0016619873046875;0.87615966796875;87;1 mA
0.88623046875;2224.62744838336;0.00174774169921875;0.88592529296875;88;1 mA
0.89630126953125;2224.7281563831;0.00183380126953125;0.8966064453125;89;1 mA
0.9063720703125;2224.82886438285;0.00191925048828125;0.90606689453125;90;1 mA
0.91644287109375;2224.92957238259;0.00201019287109375;0.916748046875;91;1 mA
0.926513671875;2225.03028038234;0.00209503173828125;0.926513671875;92;1 mA
0.93658447265625;2225.13098838208;0.0021875;0.9368896484375;93;1 mA
0.9466552734375;2225.23169638183;0.0022772216796875;0.947265625;94;1 mA
0.95672607421875;2225.33240438158;0.00236724853515625;0.9564208984375;95;1 mA
0.966796875;2225.43311238132;0.0024603271484375;0.96649169921875;96;1 mA
0.97686767578125;2225.53382038107;0.00254913330078125;0.97686767578125;97;1 mA
0.9869384765625;2225.63452838081;0.0026446533203125;0.98663330078125;98;1 mA
0.99700927734375;2225.73523638056;0.00273651123046875;0.99700927734375;99;1 mA
1.007080078125;2225.8359443803;0.00282989501953125;1.007080078125;100;1 mA
1.01715087890625;2225.93665238005;0.00292205810546875;1.01715087890625;101;1 mA
1.0272216796875;2226.0373603798;0.00301422119140625;1.0272216796875;102;1 mA
1.03729248046875;2226.13806837954;0.00311492919921875;1.03759765625;103;1 mA
1.04736328125;2226.23877637929;0.0032049560546875;1.04766845703125;104;1 mA
1.05743408203125;2226.33948437903;0.00330047607421875;1.05743408203125;105;1 mA
1.0675048828125;2226.44019237878;0.003392333984375;1.06842041015625;106;1 mA
1.07757568359375;2226.54090037852;0.0034881591796875;1.0772705078125;107;1 mA
1.087646484375;2226.64160837827;0.00358978271484375;1.087646484375;108;1 mA
1.09771728515625;2226.74231637802;0.00367950439453125;1.0980224609375;109;1 mA
1.1077880859375;2226.84302437776;0.00377685546875;1.1077880859375;110;1 mA
1.11785888671875;2226.94373237751;0.00386688232421875;1.1181640625;111;1 mA
1.1279296875;2227.04444037725;0.003961181640625;1.12762451171875;112;1 mA
1.13800048828125;2227.145148377;0.004058837890625;1.1383056640625;113;1 mA
1.1480712890625;2227.24585637675;0.0041680908203125;1.14837646484375;114;1 mA
1.15814208984375;2227.34656437649;0.004266357421875;1.15814208984375;115;1 mA
1.168212890625;2227.44727237624;0.00436187744140625;1.1688232421875;116;1 mA
1.17828369140625;2227.54798037598;0.0044598388671875;1.1785888671875;117;1 mA
1.1883544921875;2227.64868837573;0.00455078125;1.1883544921875;118;1 mA
1.19842529296875;2227.74939637547;0.00464447021484375;1.1981201171875;119;1 mA
1.20849609375;2227.85010437522;0.00474273681640625;1.2091064453125;120;1 mA
1.21856689453125;2227.95081237496;0.00483734130859375;1.2188720703125;121;1 mA
1.2286376953125;2228.05152037471;0.00493621826171875;1.22894287109375;122;1 mA
1.23870849609375;2228.15222837446;0.00501983642578125;1.239013671875;123;1 mA
1.248779296875;2228.2529363742;0.0051171875;1.248779296875;124;1 mA
1.25885009765625;2228.35364437395;0.00521820068359375;1.25885009765625;125;1 mA
1.2689208984375;2228.45435237369;0.0053070068359375;1.26953125;126;1 mA
1.27899169921875;2228.55506037344;0.005418701171875;1.279296875;127;1 mA
1.2890625;2228.65576837319;0.0055120849609375;1.2896728515625;128;1 mA
1.29913330078125;2228.75647637293;0.0056048583984375;1.2994384765625;129;1 mA
1.3092041015625;2228.85718437268;0.00571014404296875;1.31011962890625;130;1 mA
1.31927490234375;2228.95789237242;0.00580291748046875;1.31988525390625;131;1 mA
1.329345703125;2229.05860037217;0.00590087890625;1.329345703125;132;1 mA
1.33941650390625;2229.15930837191;0.00598358154296875;1.34002685546875;133;1 mA
1.3494873046875;2229.26001637166;0.0060858154296875;1.35009765625;134;1 mA
1.35955810546875;2229.36072437141;0.006195068359375;1.35986328125;135;10 mA
1.36962890625;2229.46143237115;0.0062835693359375;1.36993408203125;136;10 mA
1.37969970703125;2229.5621403709;0.0063720703125;1.37969970703125;137;10 mA
1.3897705078125;2229.66284837064;0.0064849853515625;1.39007568359375;138;10 mA
1.39984130859375;2229.76355637039;0.006573486328125;1.39984130859375;139;10 mA
1.409912109375;2229.86426437013;0.0066497802734375;1.41021728515625;140;10 mA
1.41998291015625;2229.96497236988;0.0067474365234375;1.4202880859375;141;10 mA
1.4300537109375;2230.06568036963;0.006842041015625;1.43035888671875;142;10 mA
1.44012451171875;2230.16638836937;0.00693359375;1.4404296875;143;10 mA
1.4501953125;2230.26709636912;0.0070220947265625;1.4508056640625;144;10 mA
1.46026611328125;2230.36780436886;0.0071044921875;1.46087646484375;145;10 mA
1.4703369140625;2230.46851236861;0.00718994140625;1.4703369140625;146;10 mA
1.48040771484375;2230.56922036835;0.007275390625;1.480712890625;147;10 mA
1.490478515625;2230.6699283681;0.0073577880859375;1.49078369140625;148;10 mA
1.50054931640625;2230.77063636785;0.0074371337890625;1.50115966796875;149;10 mA
1.5106201171875;2230.87134436759;0.007537841796875;1.51153564453125;150;10 mA
1.52069091796875;2230.97205236734;0.007647705078125;1.52069091796875;151;10 mA
1.53076171875;2231.07276036708;0.0077301025390625;1.53106689453125;152;10 mA
1.54083251953125;2231.17346836683;0.0078033447265625;1.54083251953125;153;10 mA
1.5509033203125;2231.27417636657;0.0079071044921875;1.5509033203125;154;10 mA
1.56097412109375;2231.37488436632;0.0079986572265625;1.5618896484375;155;10 mA
1.571044921875;2231.47559236607;0.0081298828125;1.57135009765625;156;10 mA
1.58111572265625;2231.57630036581;0.008197021484375;1.58050537109375;157;10 mA
1.5911865234375;2231.67700836556;0.0082794189453125;1.5911865234375;158;10 mA
1.60125732421875;2231.7777163653;0.00836181640625;1.60125732421875;159;10 mA
