Potential applied (V);Time (s);WE(1).Current (A);WE(1).Potential (V);Index;Current range
0.01007080078125;2068.42860977772;-4.24102783203125E-06;0.010479736328125;1;1 µA
0.0201416015625;2068.52931777747;-3.84735107421875E-06;0.020574951171875;2;1 µA
0.03021240234375;2068.63002577721;-3.555908203125E-06;0.0306640625;3;1 µA
0.040283203125;2068.73073377696;-3.3013916015625E-06;0.0407012939453125;4;1 µA
0.05035400390625;2068.8314417767;-3.0694580078125E-06;0.050811767578125;5;1 µA
0.0604248046875;2068.93214977645;-2.83905029296875E-06;0.0604248046875;6;1 µA
0.07049560546875;2069.03285777619;-2.5994873046875E-06;0.07049560546875;7;1 µA
0.08056640625;2069.13356577594;-2.3260498046875E-06;0.080657958984375;8;1 µA
0.09063720703125;2069.23427377569;-1.99432373046875E-06;0.09088134765625;9;1 µA
0.1007080078125;2069.33498177543;-1.55853271484375E-06;0.10089111328125;10;1 µA
0.11077880859375;2069.43568977518;-9.9822998046875E-07;0.11114501953125;11;1 µA
0.120849609375;2069.53639777492;-2.4078369140625E-07;0.121246337890625;12;1 µA
0.13092041015625;2069.63710577467;8.001708984375E-07;0.131500244140625;13;1 µA
0.1409912109375;2069.73781377441;2.20245361328125E-06;0.14190673828125;14;1 µA
0.15106201171875;2069.83852177416;4.090576171875E-06;0.152252197265625;15;1 µA
0.1611328125;2069.93922977391;6.636962890625E-06;0.1627197265625;16;1 µA
0.17120361328125;2070.03993777365;1.01593017578125E-05;0.171844482421875;17;10 µA
0.1812744140625;2070.1406457734;1.5020751953125E-05;0.1820068359375;18;10 µA
0.19134521484375;2070.24135377314;2.11700439453125E-05;0.19219970703125;19;10 µA
0.201416015625;2070.34206177289;2.8533935546875E-05;0.202392578125;20;10 µA
0.21148681640625;2070.44276977263;3.721923828125E-05;0.212615966796875;21;10 µA
0.2215576171875;2070.54347777238;4.676513671875E-05;0.222900390625;22;10 µA
0.23162841796875;2070.64418577213;5.6610107421875E-05;0.233123779296875;23;10 µA
0.24169921875;2070.74489377187;6.541748046875E-05;0.243316650390625;24;10 µA
0.25177001953125;2070.84560177162;7.16552734375E-05;0.25244140625;25;100 µA
0.2618408203125;2070.94630977136;7.3516845703125E-05;0.262603759765625;26;100 µA
0.27191162109375;2071.04701777111;7.0587158203125E-05;0.2725830078125;27;100 µA
0.281982421875;2071.14772577085;6.4544677734375E-05;0.282562255859375;28;100 µA
0.29205322265625;2071.2484337706;5.780029296875E-05;0.292724609375;29;100 µA
0.3021240234375;2071.34914177035;5.194091796875E-05;0.30267333984375;30;100 µA
0.31219482421875;2071.44984977009;4.754638671875E-05;0.312896728515625;31;100 µA
0.322265625;2071.55055776984;4.4171142578125E-05;0.322906494140625;32;100 µA
0.33233642578125;2071.65126576958;4.1888427734375E-05;0.332977294921875;33;100 µA
0.3424072265625;2071.75197376933;4.046630859375E-05;0.343109130859375;34;100 µA
0.35247802734375;2071.85268176907;3.97857666015625E-05;0.353118896484375;35;100 µA
0.362548828125;2071.95338976882;3.97308349609375E-05;0.363983154296875;36;10 µA
0.37261962890625;2072.05409776857;4.01611328125E-05;0.3740234375;37;10 µA
0.3826904296875;2072.15480576831;4.12506103515625E-05;0.384063720703125;38;10 µA
0.39276123046875;2072.25551376806;4.28375244140625E-05;0.394134521484375;39;10 µA
0.40283203125;2072.3562217678;4.52545166015625E-05;0.404266357421875;40;10 µA
0.41290283203125;2072.45692976755;4.8150634765625E-05;0.414459228515625;41;10 µA
0.4229736328125;2072.5576377673;5.15716552734375E-05;0.424468994140625;42;10 µA
0.43304443359375;2072.65834576704;5.56976318359375E-05;0.434661865234375;43;10 µA
0.443115234375;2072.75905376679;6.05621337890625E-05;0.44482421875;44;10 µA
0.45318603515625;2072.85976176653;6.6192626953125E-05;0.4539794921875;45;100 µA
0.4632568359375;2072.96046976628;7.2540283203125E-05;0.46405029296875;46;100 µA
0.47332763671875;2073.06117776602;7.9559326171875E-05;0.474151611328125;47;100 µA
0.4833984375;2073.16188576577;8.7249755859375E-05;0.48431396484375;48;100 µA
0.49346923828125;2073.26259376552;9.5428466796875E-05;0.494354248046875;49;100 µA
0.5035400390625;2073.36330176526;0.000104095458984375;0.504364013671875;50;100 µA
0.51361083984375;2073.46400976501;0.00011260986328125;0.514404296875;51;100 µA
0.523681640625;2073.56471776475;0.00012158203125;0.524505615234375;52;100 µA
0.53375244140625;2073.6654257645;0.000130523681640625;0.53472900390625;53;100 µA
0.5438232421875;2073.76613376424;0.0001390380859375;0.5447998046875;54;100 µA
0.55389404296875;2073.86684176399;0.000147918701171875;0.554840087890625;55;100 µA
0.56396484375;2073.96754976374;0.00015679931640625;0.564971923828125;56;100 µA
0.57403564453125;2074.06825776348;0.000165924072265625;0.574981689453125;57;100 µA
0.5841064453125;2074.16896576323;0.00017523193359375;0.585174560546875;58;100 µA
0.59417724609375;2074.26967376297;0.000184326171875;0.59521484375;59;100 µA
0.604248046875;2074.37038176272;0.000193878173828125;0.6053466796875;60;100 µA
0.61431884765625;2074.47108976246;0.000203277587890625;0.615447998046875;61;100 µA
0.6243896484375;2074.57179776221;0.00021478271484375;0.62554931640625;62;100 µA
0.63446044921875;2074.67250576196;0.0002269287109375;0.6356201171875;63;100 µA
0.64453125;2074.7732137617;0.0002425537109375;0.645660400390625;64;100 µA
0.65460205078125;2074.87392176145;0.000261383056640625;0.655853271484375;65;100 µA
0.6646728515625;2074.97462976119;0.000284423828125;0.66595458984375;66;100 µA
0.67474365234375;2075.07533776094;0.00031317138671875;0.676055908203125;67;100 µA
0.684814453125;2075.17604576068;0.000345733642578125;0.686309814453125;68;100 µA
0.69488525390625;2075.27675376043;0.000383819580078125;0.696380615234375;69;100 µA
0.7049560546875;2075.37746176018;0.000424530029296875;0.706512451171875;70;100 µA
0.71502685546875;2075.47816975992;0.00046783447265625;0.7166748046875;71;100 µA
0.72509765625;2075.57887775967;0.000514434814453125;0.7269287109375;72;100 µA
0.73516845703125;2075.67958575941;0.000561767578125;0.73699951171875;73;100 µA
0.7452392578125;2075.78029375916;0.000612701416015625;0.747161865234375;74;100 µA
0.75531005859375;2075.8810017589;0.0006640625;0.75531005859375;75;1 mA
0.765380859375;2075.98170975865;0.0007171630859375;0.76568603515625;76;1 mA
0.77545166015625;2076.0824177584;0.0007708740234375;0.7757568359375;77;1 mA
0.7855224609375;2076.18312575814;0.000823974609375;0.7855224609375;78;1 mA
0.79559326171875;2076.28383375789;0.00088104248046875;0.79620361328125;79;1 mA
0.8056640625;2076.38454175763;0.00093658447265625;0.80596923828125;80;1 mA
0.81573486328125;2076.48524975738;0.0009954833984375;0.8154296875;81;1 mA
0.8258056640625;2076.58595775712;0.0010528564453125;0.8251953125;82;1 mA
0.83587646484375;2076.68666575687;0.00110870361328125;0.8355712890625;83;1 mA
0.845947265625;2076.78737375662;0.00116943359375;0.845947265625;84;1 mA
0.85601806640625;2076.88808175636;0.00122711181640625;0.8563232421875;85;1 mA
0.8660888671875;2076.98878975611;0.0012890625;0.86578369140625;86;1 mA
0.87615966796875;2077.08949775585;0.00134918212890625;0.8758544921875;87;1 mA
0.88623046875;2077.1902057556;0.00141021728515625;0.88623046875;88;1 mA
0.89630126953125;2077.29091375534;0.00147186279296875;0.89630126953125;89;1 mA
0.9063720703125;2077.39162175509;0.0015301513671875;0.9063720703125;90;1 mA
0.91644287109375;2077.49232975484;0.0015960693359375;0.91644287109375;91;1 mA
0.926513671875;2077.59303775458;0.001656494140625;0.9271240234375;92;1 mA
0.93658447265625;2077.69374575433;0.00172149658203125;0.93719482421875;93;1 mA
0.9466552734375;2077.79445375407;0.0017840576171875;0.94696044921875;94;1 mA
0.95672607421875;2077.89516175382;0.00184417724609375;0.9564208984375;95;1 mA
0.966796875;2077.99586975356;0.00191070556640625;0.966796875;96;1 mA
0.97686767578125;2078.09657775331;0.00197052001953125;0.9765625;97;1 mA
0.9869384765625;2078.19728575306;0.0020379638671875;0.986328125;98;1 mA
0.99700927734375;2078.2979937528;0.0021026611328125;0.99700927734375;99;1 mA
1.007080078125;2078.39870175255;0.0021649169921875;1.007080078125;100;1 mA
1.01715087890625;2078.49940975229;0.00222900390625;1.0174560546875;101;1 mA
1.0272216796875;2078.60011775204;0.0022894287109375;1.0272216796875;102;1 mA
1.03729248046875;2078.70082575179;0.00236236572265625;1.03790283203125;103;1 mA
1.04736328125;2078.80153375153;0.002425537109375;1.04736328125;104;1 mA
1.05743408203125;2078.90224175128;0.00249114990234375;1.05712890625;105;1 mA
1.0675048828125;2079.00294975102;0.0025543212890625;1.06781005859375;106;1 mA
1.07757568359375;2079.10365775077;0.0026165771484375;1.07757568359375;107;1 mA
1.087646484375;2079.20436575051;0.0026873779296875;1.087646484375;108;1 mA
1.09771728515625;2079.30507375026;0.00274658203125;1.09771728515625;109;1 mA
1.1077880859375;2079.40578175001;0.00281707763671875;1.10809326171875;110;1 mA
1.11785888671875;2079.50648974975;0.00288543701171875;1.11785888671875;111;1 mA
1.1279296875;2079.6071977495;0.002943115234375;1.12762451171875;112;1 mA
1.13800048828125;2079.70790574924;0.00301025390625;1.1383056640625;113;1 mA
1.1480712890625;2079.80861374899;0.0030712890625;1.14837646484375;114;1 mA
1.15814208984375;2079.90932174873;0.00314422607421875;1.158447265625;115;1 mA
1.168212890625;2080.01002974848;0.003204345703125;1.168212890625;116;1 mA
1.17828369140625;2080.11073774823;0.00327117919921875;1.1785888671875;117;1 mA
1.1883544921875;2080.21144574797;0.003330078125;1.1883544921875;118;1 mA
1.19842529296875;2080.31215374772;0.00338592529296875;1.19873046875;119;1 mA
1.20849609375;2080.41286174746;0.00345794677734375;1.20880126953125;120;1 mA
1.21856689453125;2080.51356974721;0.0035137939453125;1.21917724609375;121;1 mA
1.2286376953125;2080.61427774695;0.00358062744140625;1.22894287109375;122;1 mA
1.23870849609375;2080.7149857467;0.0036407470703125;1.23931884765625;123;1 mA
1.248779296875;2080.81569374645;0.003695068359375;1.24969482421875;124;1 mA
1.25885009765625;2080.91640174619;0.00376617431640625;1.25946044921875;125;1 mA
1.2689208984375;2081.01710974594;0.0038238525390625;1.26922607421875;126;1 mA
1.27899169921875;2081.11781774568;0.00390716552734375;1.27899169921875;127;1 mA
1.2890625;2081.21852574543;0.00397003173828125;1.2896728515625;128;1 mA
1.29913330078125;2081.31923374517;0.00402313232421875;1.29974365234375;129;1 mA
1.3092041015625;2081.41994174492;0.00409881591796875;1.309814453125;130;1 mA
1.31927490234375;2081.52064974467;0.004146728515625;1.319580078125;131;1 mA
1.329345703125;2081.62135774441;0.00421051025390625;1.329345703125;132;1 mA
1.33941650390625;2081.72206574416;0.00428741455078125;1.34002685546875;133;1 mA
1.3494873046875;2081.8227737439;0.0043426513671875;1.35009765625;134;1 mA
1.35955810546875;2081.92348174365;0.00440673828125;1.35986328125;135;1 mA
1.36962890625;2082.02418974339;0.00446319580078125;1.36993408203125;136;1 mA
1.37969970703125;2082.12489774314;0.00453826904296875;1.3800048828125;137;1 mA
1.3897705078125;2082.22560574289;0.00463287353515625;1.39068603515625;138;1 mA
1.39984130859375;2082.32631374263;0.0046942138671875;1.400146484375;139;1 mA
1.409912109375;2082.42702174238;0.00474761962890625;1.41082763671875;140;1 mA
1.41998291015625;2082.52772974212;0.00480010986328125;1.42059326171875;141;1 mA
1.4300537109375;2082.62843774187;0.0049298095703125;1.43035888671875;142;1 mA
1.44012451171875;2082.72914574161;0.00497467041015625;1.44073486328125;143;1 mA
1.4501953125;2082.82985374136;0.00504486083984375;1.4508056640625;144;1 mA
1.46026611328125;2082.93056174111;0.00509735107421875;1.46087646484375;145;1 mA
1.4703369140625;2083.03126974085;0.005150146484375;1.470947265625;146;1 mA
1.48040771484375;2083.1319777406;0.00519989013671875;1.48101806640625;147;1 mA
1.490478515625;2083.23268574034;0.0052471923828125;1.49078369140625;148;1 mA
1.50054931640625;2083.33339374009;0.0053265380859375;1.50115966796875;149;1 mA
1.5106201171875;2083.43410173983;0.00537841796875;1.51123046875;150;1 mA
1.52069091796875;2083.53480973958;0.0054296875;1.52099609375;151;1 mA
1.53076171875;2083.63551773933;0.005498046875;1.53076171875;152;1 mA
1.54083251953125;2083.73622573907;0.0055364990234375;1.54144287109375;153;1 mA
1.5509033203125;2083.83693373882;0.00563140869140625;1.5521240234375;154;1 mA
1.56097412109375;2083.93764173856;0.0056817626953125;1.5618896484375;155;1 mA
1.571044921875;2084.03834973831;0.0057421875;1.57135009765625;156;1 mA
1.58111572265625;2084.13905773805;0.00578582763671875;1.5814208984375;157;1 mA
1.5911865234375;2084.2397657378;0.00585357666015625;1.59210205078125;158;1 mA
1.60125732421875;2084.34047373755;0.005999755859375;1.6015625;159;1 mA
